WAVELENGTH,FLUX
1210.0,1.1919988537417309e-16
1210.01,1.1962074939505432e-16
1210.02,1.2004384503841659e-16
1210.03,1.204691881007108e-16
1210.04,1.2089679451832317e-16
1210.05,1.213266803690655e-16
1210.06,1.2175886187368217e-16
1210.07,1.2219335539737767e-16
1210.08,1.2263017745136118e-16
1210.09,1.2306934469441266e-16
1210.1,1.2351087393446667e-16
1210.11,1.2395478213021763e-16
1210.12,1.244010863927433e-16
1210.1299999999999,1.2484980398715156e-16
1210.1399999999999,1.2530095233424434e-16
1210.1499999999999,1.257545490122061e-16
1210.1599999999999,1.2621061175831113e-16
1210.1699999999998,1.2666915847065355e-16
1210.1799999999998,1.2713020720989975e-16
1210.1899999999998,1.2759377620106215e-16
1210.1999999999998,1.280598838352953e-16
1210.2099999999998,1.2852854867171673e-16
1210.2199999999998,1.2899978943924963e-16
1210.2299999999998,1.294736250384889e-16
1210.2399999999998,1.299500745435924e-16
1210.2499999999998,1.3042915720419522e-16
1210.2599999999998,1.309108924473502e-16
1210.2699999999998,1.313952998794913e-16
1210.2799999999997,1.3188239928842478e-16
1210.2899999999997,1.323722106453441e-16
1210.2999999999997,1.3286475410687339e-16
1210.3099999999997,1.3336005001713347e-16
1210.3199999999997,1.3385811890984014e-16
1210.3299999999997,1.3435898151042506e-16
1210.3399999999997,1.348626587381874e-16
1210.3499999999997,1.3536917170847217e-16
1210.3599999999997,1.3587854173487808e-16
1210.3699999999997,1.3639079033149312e-16
1210.3799999999997,1.369059392151616e-16
1210.3899999999996,1.3742401030777927e-16
1210.3999999999996,1.3794502573861997e-16
1210.4099999999996,1.384690078466916e-16
1210.4199999999996,1.3899597918312576e-16
1210.4299999999996,1.3952596251359733e-16
1210.4399999999996,1.4005898082077643e-16
1210.4499999999996,1.4059505730681391e-16
1210.4599999999996,1.4113421539585986e-16
1210.4699999999996,1.4167647873661496e-16
1210.4799999999996,1.4222187120491705e-16
1210.4899999999996,1.427704169063632e-16
1210.4999999999995,1.433221401789652e-16
1210.5099999999995,1.4387706559584187e-16
1210.5199999999995,1.44435217967948e-16
1210.5299999999995,1.4499662234684089e-16
1210.5399999999995,1.4556130402748244e-16
1210.5499999999995,1.4612928855108197e-16
1210.5599999999995,1.4670060170797504e-16
1210.5699999999995,1.4727526954054422e-16
1210.5799999999995,1.4785331834617828e-16
1210.5899999999995,1.4843477468027204e-16
1210.5999999999995,1.4901966535926795e-16
1210.6099999999994,1.496080174637399e-16
1210.6199999999994,1.5019985834151883e-16
1210.6299999999994,1.5079521561086034e-16
1210.6399999999994,1.5139411716366004e-16
1210.6499999999994,1.5199659116870907e-16
1210.6599999999994,1.5260266607499793e-16
1210.6699999999994,1.5321237061506474e-16
1210.6799999999994,1.5382573380839179e-16
1210.6899999999994,1.544427849648474e-16
1210.6999999999994,1.550635536881782e-16
1210.7099999999994,1.5568806987954878e-16
1210.7199999999993,1.5631636374113225e-16
1210.7299999999993,1.5694846577975153e-16
1210.7399999999993,1.575844068105706e-16
1210.7499999999993,1.5822421796083966e-16
1210.7599999999993,1.588679306736936e-16
1210.7699999999993,1.5951557671200143e-16
1210.7799999999993,1.601671881622749e-16
1210.7899999999993,1.6082279743863045e-16
1210.7999999999993,1.6148243728680641e-16
1210.8099999999993,1.621461407882417e-16
1210.8199999999993,1.6281394136420993e-16
1210.8299999999992,1.6348587278001392e-16
1210.8399999999992,1.641619691492403e-16
1210.8499999999992,1.6484226493807712e-16
1210.8599999999992,1.6552679496969212e-16
1210.8699999999992,1.662155944286752e-16
1210.8799999999992,1.6690869886554615e-16
1210.8899999999992,1.6760614420132673e-16
1210.8999999999992,1.6830796673218032e-16
1210.9099999999992,1.6901420313411932e-16
1210.9199999999992,1.6972489046778267e-16
1210.9299999999992,1.7044006618327975e-16
1210.9399999999991,1.7115976812511187e-16
1210.9499999999991,1.718840345371589e-16
1210.9599999999991,1.726129040677465e-16
1210.9699999999991,1.733464157747839e-16
1210.979999999999,1.740846091309791e-16
1210.989999999999,1.7482752402913335e-16
1210.999999999999,1.7557520078751147e-16
1211.009999999999,1.763276801552957e-16
1211.019999999999,1.7708500331811731e-16
1211.029999999999,1.7784721190367628e-16
1211.039999999999,1.786143479874406e-16
1211.049999999999,1.7938645409843374e-16
1211.059999999999,1.8016357322510988e-16
1211.069999999999,1.8094574882131696e-16
1211.079999999999,1.817330248123502e-16
1211.089999999999,1.825254456010988e-16
1211.099999999999,1.8332305607428476e-16
1211.109999999999,1.841259016087972e-16
1211.119999999999,1.849340280781254e-16
1211.129999999999,1.8574748185888749e-16
1211.139999999999,1.8656630983746141e-16
1211.149999999999,1.8739055941671767e-16
1211.159999999999,1.8822027852285498e-16
1211.169999999999,1.890555156123439e-16
1211.179999999999,1.898963196789747e-16
1211.189999999999,1.9074274026101814e-16
1211.199999999999,1.9159482744849443e-16
1211.209999999999,1.9245263189055927e-16
1211.219999999999,1.9331620480300104e-16
1211.2299999999989,1.9418559797585974e-16
1211.2399999999989,1.9506086378116188e-16
1211.2499999999989,1.9594205518078132e-16
1211.2599999999989,1.968292257344182e-16
1211.2699999999988,1.9772242960770967e-16
1211.2799999999988,1.986217215804664e-16
1211.2899999999988,1.995271570550402e-16
1211.2999999999988,2.0043879206482553e-16
1211.3099999999988,2.01356683282894e-16
1211.3199999999988,2.0228088803077204e-16
1211.3299999999988,2.0321146428735355e-16
1211.3399999999988,2.0414847069796042e-16
1211.3499999999988,2.050919665835441e-16
1211.3599999999988,2.060420119500417e-16
1211.3699999999988,2.0699866749787651e-16
1211.3799999999987,2.0796199463161955e-16
1211.3899999999987,2.0893205546980022e-16
1211.3999999999987,2.0990891285488606e-16
1211.4099999999987,2.1089263036341523e-16
1211.4199999999987,2.1188327231630448e-16
1211.4299999999987,2.1288090378931777e-16
1211.4399999999987,2.1388559062371353e-16
1211.4499999999987,2.1489739943706196e-16
1211.4599999999987,2.1591639763424559e-16
1211.4699999999987,2.1694265341863823e-16
1211.4799999999987,2.1797623580347168e-16
1211.4899999999986,2.190172146233905e-16
1211.4999999999986,2.20065660546199e-16
1211.5099999999986,2.2112164508480625e-16
1211.5199999999986,2.2218524060936876e-16
1211.5299999999986,2.2325652035963896e-16
1211.5399999999986,2.243355584575192e-16
1211.5499999999986,2.2542242991983105e-16
1211.5599999999986,2.2651721067129656e-16
1211.5699999999986,2.276199775577422e-16
1211.5799999999986,2.2873080835952615e-16
1211.5899999999986,2.298497818051943e-16
1211.5999999999985,2.309769775853698e-16
1211.6099999999985,2.321124763668783e-16
1211.6199999999985,2.332563598071196e-16
1211.6299999999985,2.34408710568682e-16
1211.6399999999985,2.355696123342117e-16
1211.6499999999985,2.367391498215359e-16
1211.6599999999985,2.3791740879905236e-16
1211.6699999999985,2.391044761013821e-16
1211.6799999999985,2.4030043964529767e-16
1211.6899999999985,2.415053884459255e-16
1211.6999999999985,2.4271941263323573e-16
1211.7099999999984,2.4394260346881965e-16
1211.7199999999984,2.451750533629613e-16
1211.7299999999984,2.4641685589201023e-16
1211.7399999999984,2.4766810581606387e-16
1211.7499999999984,2.4892889909695713e-16
1211.7599999999984,2.5019933291657716e-16
1211.7699999999984,2.5147950569550473e-16
1211.7799999999984,2.5276951711197954e-16
1211.7899999999984,2.5406946812121667e-16
1211.7999999999984,2.5537946097506114e-16
1211.8099999999984,2.5669959924199863e-16
1211.8199999999983,2.5802998782752827e-16
1211.8299999999983,2.5937073299490025e-16
1211.8399999999983,2.607219423862343e-16
1211.8499999999983,2.6208372504401477e-16
1211.8599999999983,2.6345619143298565e-16
1211.8699999999983,2.64839453462438e-16
1211.8799999999983,2.6623362450891045e-16
1211.8899999999983,2.6763881943930164e-16
1211.8999999999983,2.6905515463441564e-16
1211.9099999999983,2.7048274801293147e-16
1211.9199999999983,2.719217190558253e-16
1211.9299999999982,2.733721888312414e-16
1211.9399999999982,2.748342800198246e-16
1211.9499999999982,2.7630811694053e-16
1211.9599999999982,2.7779382557690727e-16
1211.9699999999982,2.792915336038863e-16
1211.9799999999982,2.808013704150607e-16
1211.9899999999982,2.823234671504861e-16
1211.9999999999982,2.8385795672500625e-16
1212.0099999999982,2.8540497385711563e-16
1212.0199999999982,2.869646550983629e-16
1212.0299999999982,2.8853713886332867e-16
1212.0399999999981,2.9012256546015977e-16
1212.0499999999981,2.9172107712170223e-16
1212.0599999999981,2.9333281803722257e-16
1212.0699999999981,2.949579343847442e-16
1212.079999999998,2.965965743640078e-16
1212.089999999998,2.9824888823006737e-16
1212.099999999998,2.9991502832754355e-16
1212.109999999998,3.0159514912553753e-16
1212.119999999998,3.0328940725323174e-16
1212.129999999998,3.049979615361839e-16
1212.139999999998,3.0672097303333427e-16
1212.149999999998,3.0845860507474446e-16
1212.159999999998,3.102110233000767e-16
1212.169999999998,3.119783956978351e-16
1212.179999999998,3.1376089264538956e-16
1212.189999999998,3.1555868694979406e-16
1212.199999999998,3.1737195388941806e-16
1212.209999999998,3.192008712564135e-16
1212.219999999998,3.210456194000339e-16
1212.229999999998,3.229063812708237e-16
1212.239999999998,3.2478334246570335e-16
1212.249999999998,3.2667669127396354e-16
1212.259999999998,3.2858661872419473e-16
1212.269999999998,3.3051331863217146e-16
1212.279999999998,3.3245698764971775e-16
1212.289999999998,3.344178253145667e-16
1212.299999999998,3.363960341012515e-16
1212.309999999998,3.3839181947303937e-16
1212.319999999998,3.4040538993494164e-16
1212.3299999999979,3.4243695708781846e-16
1212.3399999999979,3.444867356836109e-16
1212.3499999999979,3.4655494368172604e-16
1212.3599999999979,3.486418023065922e-16
1212.3699999999978,3.5074753610643193e-16
1212.3799999999978,3.5287237301326e-16
1212.3899999999978,3.55016544404155e-16
1212.3999999999978,3.5718028516382266e-16
1212.4099999999978,3.593638337484856e-16
1212.4199999999978,3.615674322511366e-16
1212.4299999999978,3.637913264681803e-16
1212.4399999999978,3.660357659675028e-16
1212.4499999999978,3.683010041580032e-16
1212.4599999999978,3.705872983606226e-16
1212.4699999999978,3.7289490988090797e-16
1212.4799999999977,3.752241040831443e-16
1212.4899999999977,3.7757515046610266e-16
1212.4999999999977,3.7994832274043884e-16
1212.5099999999977,3.823438989077821e-16
1212.5199999999977,3.8476216134155813e-16
1212.5299999999977,3.8720339686959516e-16
1212.5399999999977,3.896678968585465e-16
1212.5499999999977,3.921559573001902e-16
1212.5599999999977,3.9466787889963577e-16
1212.5699999999977,3.972039671655044e-16
1212.5799999999977,3.9976453250211763e-16
1212.5899999999976,4.0234989030375976e-16
1212.5999999999976,4.04960361051055e-16
1212.6099999999976,4.0759627040951745e-16
1212.6199999999976,4.1025794933033766e-16
1212.6299999999976,4.129457341534534e-16
1212.6399999999976,4.156599667129681e-16
1212.6499999999976,4.1840099444497726e-16
1212.6599999999976,4.2116917049787265e-16
1212.6699999999976,4.2396485384517203e-16
1212.6799999999976,4.267884094009652e-16
1212.6899999999976,4.2964020813802126e-16
1212.6999999999975,4.3252062720864454e-16
1212.7099999999975,4.354300500683449e-16
1212.7199999999975,4.383688666023997e-16
1212.7299999999975,4.413374732553805e-16
1212.7399999999975,4.443362731637327e-16
1212.7499999999975,4.473656762914789e-16
1212.7599999999975,4.504260995691425e-16
1212.7699999999975,4.535179670359681e-16
1212.7799999999975,4.566417099855355e-16
1212.7899999999975,4.597977671148567e-16
1212.7999999999975,4.6298658467705265e-16
1212.8099999999974,4.662086166377037e-16
1212.8199999999974,4.694643248349854e-16
1212.8299999999974,4.727541791436792e-16
1212.8399999999974,4.760786576431809e-16
1212.8499999999974,4.794382467896064e-16
1212.8599999999974,4.828334415921176e-16
1212.8699999999974,4.862647457935801e-16
1212.8799999999974,4.897326720556775e-16
1212.8899999999974,4.932377421486083e-16
1212.8999999999974,4.967804871454973e-16
1212.9099999999974,5.003614476216483e-16
1212.9199999999973,5.039811738587871e-16
1212.9299999999973,5.076402260544212e-16
1212.9399999999973,5.113391745364862e-16
1212.9499999999973,5.15078599983409e-16
1212.9599999999973,5.188590936497544e-16
1212.9699999999973,5.226812575976222e-16
1212.9799999999973,5.265457049339488e-16
1212.9899999999973,5.304530600538991e-16
1212.9999999999973,5.344039588905193e-16
1213.0099999999973,5.383990491708422e-16
1213.0199999999973,5.424389906786189e-16
1213.0299999999972,5.465244555238967e-16
1213.0399999999972,5.506561284196366e-16
1213.0499999999972,5.548347069655621e-16
1213.0599999999972,5.590609019395014e-16
1213.0699999999972,5.633354375963918e-16
1213.0799999999972,5.676590519752247e-16
1213.0899999999972,5.720324972141471e-16
1213.0999999999972,5.764565398739762e-16
1213.1099999999972,5.809319612703771e-16
1213.1199999999972,5.854595578149783e-16
1213.1299999999972,5.90040141365693e-16
1213.1399999999971,5.946745395865359e-16
1213.1499999999971,5.993635963172199e-16
1213.1599999999971,6.041081719528483e-16
1213.1699999999971,6.089091438340138e-16
1213.179999999997,6.137674066476255e-16
1213.189999999997,6.186838728388111e-16
1213.199999999997,6.236594730342277e-16
1213.209999999997,6.286951564771702e-16
1213.219999999997,6.337918914748172e-16
1213.229999999997,6.389506658580428e-16
1213.239999999997,6.441724874541488e-16
1213.249999999997,6.494583845729862e-16
1213.259999999997,6.548094065068581e-16
1213.269999999997,6.602266240446686e-16
1213.279999999997,6.657111300007793e-16
1213.289999999997,6.712640397590549e-16
1213.299999999997,6.768864918325971e-16
1213.309999999997,6.825796484396795e-16
1213.319999999997,6.883446960964253e-16
1213.329999999997,6.941828462267834e-16
1213.339999999997,7.000953357903726e-16
1213.349999999997,7.060834279288086e-16
1213.359999999997,7.121484126311153e-16
1213.369999999997,7.182916074188794e-16
1213.379999999997,7.245143580518191e-16
1213.389999999997,7.308180392544438e-16
1213.399999999997,7.37204055464551e-16
1213.409999999997,7.436738416042877e-16
1213.419999999997,7.50228863874575e-16
1213.4299999999969,7.568706205736834e-16
1213.4399999999969,7.636006429408109e-16
1213.4499999999969,7.70420496025549e-16
1213.4599999999969,7.773317795840986e-16
1213.4699999999968,7.843361290032467e-16
1213.4799999999968,7.914352162530167e-16
1213.4899999999968,7.986307508690569e-16
1213.4999999999968,8.059244809658076e-16
1213.5099999999968,8.133181942815527e-16
1213.5199999999968,8.208137192565008e-16
1213.5299999999968,8.284129261450933e-16
1213.5399999999968,8.361177281637821e-16
1213.5499999999968,8.439300826755547e-16
1213.5599999999968,8.518519924125766e-16
1213.5699999999968,8.598855067383178e-16
1213.5799999999967,8.680327229506694e-16
1213.5899999999967,8.762957876275092e-16
1213.5999999999967,8.846768980163612e-16
1213.6099999999967,8.93178303469733e-16
1213.6199999999967,9.018023069279174e-16
1213.6299999999967,9.105512664509875e-16
1213.6399999999967,9.194275968018858e-16
1213.6499999999967,9.284337710825533e-16
1213.6599999999967,9.375723224250996e-16
1213.6699999999967,9.468458457401696e-16
1213.6799999999967,9.562569995246825e-16
1213.6899999999966,9.658085077312625e-16
1213.6999999999966,9.755031617017666e-16
1213.7099999999966,9.853438221674049e-16
1213.7199999999966,9.953334213180843e-16
1213.7299999999966,1.0054749649437174e-15
1213.7399999999966,1.015771534650331e-15
1213.7499999999966,1.0262262901539833e-15
1213.7599999999966,1.0368424716555937e-15
1213.7699999999966,1.0476234022999343e-15
1213.7799999999966,1.0585724907222303e-15
1213.7899999999966,1.0696932336858657e-15
1213.7999999999965,1.0809892188149731e-15
1213.8099999999965,1.0924641274257854e-15
1213.8199999999965,1.1041217374607983e-15
1213.8299999999965,1.115965926530033e-15
1213.8399999999965,1.128000675063872e-15
1213.8499999999965,1.1402300695820802e-15
1213.8599999999965,1.1526583060839631e-15
1213.8699999999965,1.1652896935647422e-15
1213.8799999999965,1.178128657663525e-15
1213.8899999999965,1.1911797444484888e-15
1213.8999999999965,1.2044476243451387e-15
1213.9099999999964,1.217937096213849e-15
1213.9199999999964,1.231653091583139e-15
1213.9299999999964,1.245600679045446e-15
1213.9399999999964,1.259785068822542e-15
1213.9499999999964,1.2742116175080455e-15
1213.9599999999964,1.288885832994847e-15
1213.9699999999964,1.3038133795956863e-15
1213.9799999999964,1.3190000833655028e-15
1213.9899999999964,1.3344519376346342e-15
1213.9999999999964,1.3501751087623404e-15
1214.0099999999964,1.3661759421207166e-15
1214.0199999999963,1.3824609683194559e-15
1214.0299999999963,1.3990369096825053e-15
1214.0399999999963,1.4159106869882768e-15
1214.0499999999963,1.433089426485573e-15
1214.0599999999963,1.4505804671980894e-15
1214.0699999999963,1.4683913685310433e-15
1214.0799999999963,1.4865299181940835e-15
1214.0899999999963,1.5050041404555643e-15
1214.0999999999963,1.5238223047438284e-15
1214.1099999999963,1.5429929346122231e-15
1214.1199999999963,1.562524817085258e-15
1214.1299999999962,1.5824270124044067e-15
1214.1399999999962,1.6027088641929824e-15
1214.1499999999962,1.6233800100605269e-15
1214.1599999999962,1.6444503926684493e-15
1214.1699999999962,1.6659302712795631e-15
1214.1799999999962,1.6878302338157579e-15
1214.1899999999962,1.71016120944906e-15
1214.1999999999962,1.7329344817530104e-15
1214.2099999999962,1.7561617024426348e-15
1214.2199999999962,1.779854905732957e-15
1214.2299999999962,1.8040265233476836e-15
1214.2399999999961,1.828689400211469e-15
1214.2499999999961,1.853856810861151e-15
1214.2599999999961,1.879542476613309e-15
1214.2699999999961,1.905760583527727e-15
1214.279999999996,1.9325258012086373e-15
1214.289999999996,1.9598533024879942e-15
1214.299999999996,1.9877587840378197e-15
1214.309999999996,2.0162584879612218e-15
1214.319999999996,2.0453692244148357e-15
1214.329999999996,2.075108395318461e-15
1214.339999999996,2.1054940192111145e-15
1214.349999999996,2.1365447573162504e-15
1214.359999999996,2.168279940882734e-15
1214.369999999996,2.200719599872244e-15
1214.379999999996,2.233884493068102e-15
1214.389999999996,2.267796139685161e-15
1214.399999999996,2.30247685256537e-15
1214.409999999996,2.337949773048861e-15
1214.419999999996,2.3742389076161293e-15
1214.429999999996,2.411369166402783e-15
1214.439999999996,2.4493664036949705e-15
1214.449999999996,2.4882574605202258e-15
1214.459999999996,2.5280702094561104e-15
1214.469999999996,2.56883360178673e-15
1214.479999999996,2.6105777171455975e-15
1214.489999999996,2.6533338157925486e-15
1214.499999999996,2.697134393681819e-15
1214.509999999996,2.742013240488811e-15
1214.519999999996,2.7880055007742612e-15
1214.5299999999959,2.83514773847608e-15
1214.5399999999959,2.8834780049321355e-15
1214.5499999999959,2.9330359106506304e-15
1214.5599999999959,2.983862701059321e-15
1214.5699999999958,3.036001336480551e-15
1214.5799999999958,3.0894965765956148e-15
1214.5899999999958,3.1443950696800503e-15
1214.5999999999958,3.200745446910653e-15
1214.6099999999958,3.2585984220655045e-15
1214.6199999999958,3.318006896960575e-15
1214.6299999999958,3.379026072990059e-15
1214.6399999999958,3.441713569162946e-15
1214.6499999999958,3.5061295470557764e-15
1214.6599999999958,3.572336843130418e-15
1214.6699999999958,3.640401108897304e-15
1214.6799999999957,3.710390959437882e-15
1214.6899999999957,3.782378130836078e-15
1214.6999999999957,3.856437647106913e-15
1214.7099999999957,3.932647997251811e-15
1214.7199999999957,4.011091323113976e-15
1214.7299999999957,4.0918536187545e-15
1214.7399999999957,4.1750249421201635e-15
1214.7499999999957,4.260699639827636e-15
1214.7599999999957,4.348976585946265e-15
1214.7699999999957,4.43995943572259e-15
1214.7799999999957,4.533756895254933e-15
1214.7899999999956,4.630483008195384e-15
1214.7999999999956,4.7302574606298985e-15
1214.8099999999956,4.833205905364702e-15
1214.8199999999956,4.939460306929281e-15
1214.8299999999956,5.049159308692124e-15
1214.8399999999956,5.162448623576213e-15
1214.8499999999956,5.279481449955523e-15
1214.8599999999956,5.400418914412045e-15
1214.8699999999956,5.525430543134655e-15
